,Wavelength (nm),Mean Curve,Std,Correction Value,Mean Corrected,Std Corrected,Transmittance,Std Transmittance,Absorbance,Std Absorbance
0,365.087,8.180767999999999,6.821911458324272,1.5210346019501757,5.5577494000000005,10.376363379551602,1.0,2.0447743875872177,0.0,0.8880342332662297
1,365.258,122.26319000000001,113.95485732852681,2.8839538177111916,103.59488000000002,328.64054583933904,1.0,3.306447444997775,0.0,1.4359718800656391
2,365.43,81.276333,85.25912378914998,inf,64.81114,inf,1.0,inf,0.0,inf
3,365.601,85.07839,92.27555893468703,2.6219871795436256,35.731381999999996,241.94533251197163,1.0,6.85754134641071,0.0,2.978192366169567
4,365.772,175.35728,120.90438594205588,0.08907157781995408,6.60317,10.769144421211593,1.0,1.7706572296121261,0.0,0.7689866641626454
5,365.943,4.2002569,4.577368611415132,0.619636261233024,1.606249,2.8363035726626706,1.0,2.075006665121266,0.0,0.9011639445746346
6,366.114,6.249537800000001,5.3239709715526775,9.199036078056972,3.198928,48.97540104584111,1.0,15.333624632051164,0.0,6.6593085652756
7,366.285,4.053373,3.846020516375465,21.10229462991882,17.999159999999996,81.15985808926757,1.0,4.607842372180918,0.0,2.0011605157181624
8,366.456,6.8899641,5.886458980742606,6.742463871198094,11.953667000000001,39.689237006946584,1.0,3.4284135804479163,0.0,1.4889410996707002
9,366.628,10.186631000000002,7.187897201619469,1.2754825475257063,12.992870058584336,9.168037434074495,0.9895436986261584,0.9874639697627808,0.004565022424576562,0.4333817230524059
10,366.799,4.406245,7.973198678372753,2.934378795870628,6.575714,23.39638513708072,1.0,3.9917075695889483,0.0,1.7335765708439206
11,366.97,5.871019,5.893401511019676,1.983097763179201,7.1900189999999995,11.687191354020044,1.0,1.9104465691082666,0.0,0.8296964029347195
12,367.141,6.5809522000000005,8.950508801015927,3.490151080047854,11.491298,31.23862795884356,1.0,3.0397027763868403,0.0,1.3201261424107988
13,367.312,89.601258,97.34949818040089,1.1083582700492767,34.2637,107.89812139339433,1.0,3.331207925421102,0.0,1.4467252200827636
14,367.483,5.522364999999999,6.6353596354007065,2.807244190104805,10.504646,18.62707478573457,1.0,2.141967305181677,0.0,0.9302445810575808
15,367.654,0.149637,0.448911,1.9316741225903036,0.2890499206820452,0.8671497620461358,0.110518280861209,0.46888935505224194,0.9565658792594839,1.8425554391141261
16,367.825,6.0328503,6.408435445036082,3.375560501746276,11.133142000000001,21.632061566254617,1.0,2.214444898196685,0.0,0.9617211997656283
17,367.997,6.124734600000001,8.670468393214891,3.3711488373864333,4.07195,29.229439443382198,1.0,7.316502354327407,0.0,3.1775165993165433
18,368.168,3.91755,4.478387914906434,2.986691594775892,3.4284820000000003,13.375563543596979,1.0,4.065343543778309,0.0,1.7655562681039303
19,368.339,185.26650999999998,120.67682607543546,1.9691851436806613,94.41218,237.63501309428256,1.0,2.59991281664323,0.0,1.1291277896976957
20,368.51,3.594008,5.171106066446134,2.0991853840471513,7.544489063748534,10.855110274041282,0.8436307778544831,1.716610717757757,0.07384758444637449,0.883697681341312
21,368.681,113.23460999999998,110.92920105125116,2.568968634463722,184.802047,284.97363814678437,1.0,1.8269120328918451,0.0,0.7934178148075803
22,368.852,8.297307,8.294480400653256,2.2113517793668533,11.609316,18.34201399290807,1.0,1.8696328020894073,0.0,0.811971209132744
23,369.023,4.5224879,8.131324092841933,1.842102878428492,8.330887978248025,14.978735516859071,0.832980843507484,2.1180385937124218,0.07936498617383209,1.1042900696661262
24,369.195,11.46897,11.057265854183845,3.130470511378181,12.449324,34.6144446929914,1.0,2.9428340243604985,0.0,1.278056577936904
25,369.366,121.013736,82.36788854881047,2.039724385376857,194.85587,168.0077908450119,1.0,1.098498563095644,0.0,0.4770718643310893
26,369.537,6.163674,7.21302517544643,3.404211928353354,9.359479,24.554666341767778,1.0,2.872676957474258,0.0,1.2475877509216924
27,369.708,176.30540000000002,116.54991169039984,0.9528990940899233,133.62422999999998,111.06030526604258,1.0,1.0619808351101316,0.0,0.46121241657533724
28,369.879,80.84504,93.0431671417864,1.3042499620385075,76.35884,121.35154721261742,1.0,1.962186132046461,0.0,0.8521666096148633
29,370.05,160.05155,121.57594584797808,4.917795491640318,187.44687000000002,597.885638383094,1.0,3.2788292774394385,0.0,1.4239774622947743
30,370.221,4.629894,5.6406329380756555,5.380853197975342,6.029698000000001,30.35141778344944,1.0,5.178991418627951,0.0,2.249207394934413
31,370.393,101.28639999999999,93.71759605346267,8.052990584052067,102.0942,754.70691857853,1.0,7.449942643541218,0.0,3.235468980585675
32,370.564,4.5473930000000005,6.214763360486142,10.501784724438545,12.504055,65.26610692515372,1.0,5.3955489806640085,0.0,2.3432571491410936
33,370.735,5.476374,7.212810333163072,9.871509886040602,7.469505,71.20132850995508,1.0,9.622829097331888,0.0,4.179141577269288
34,370.906,6.33564,8.232836912135452,2.690829335205964,15.6107549,22.153159075140557,1.0,1.924161978662254,0.0,0.8356529296210593
35,371.077,9.303735,7.950022725759029,1.9226572912806785,13.194799,15.28516915952769,1.0,1.439483408897538,0.0,0.6251597012754829
36,371.248,110.73815200000001,112.8028700349328,3.650214739232696,245.71979000000002,411.7546988292619,1.0,1.9610293565176522,0.0,0.851664228385901
37,371.419,141.09459,114.22894390588097,3.2537930369642187,396.928,371.6773423007318,1.0,1.2378426598946237,0.0,0.5375882366566787
38,371.591,105.416514,81.5457650499875,1.5222949874581142,129.01755999999997,124.13670938403304,1.0,1.2345691638539187,0.0,0.5361665753896684
39,371.762,15.041034,28.623328180880787,11.026007744943913,165.8425573759647,315.6010382084629,0.9762987320672613,2.6274844843859815,0.010417274712911104,1.168804153252375
40,371.933,6.2916722,4.290559353907619,inf,23.957140000000003,inf,1.0,inf,0.0,inf
41,372.104,217.95209999999997,131.4257292613969,2.6122533375951194,332.1361,343.31729990895656,1.0,1.1966932423315493,0.0,0.5197172716755027
42,372.275,143.40236,115.62998894978067,1.9100838813637173,218.65414,220.8629780952408,1.0,1.2924697896599007,0.0,0.5613124976759514
43,372.446,127.60586900000001,66.1260409425156,3.333008616182054,205.25267,220.39866421541177,1.0,1.1922943873234824,0.0,0.5178068732188068
44,372.617,260.23803,162.47916853353263,5.5907960139942885,294.3397,908.3878877943805,1.0,3.1487095994220775,0.0,1.3674672041448066
45,372.789,4.103072,5.305771905654821,8.167652348664177,16.289476,43.335700366698006,1.0,2.9579763056474344,0.0,1.2846327871432472
46,372.96,11.130638,12.346402372947999,3.5695066042684216,20.5408,44.07056480919319,1.0,2.41528726743618,0.0,1.0489459324587165
47,373.131,6.610302,8.990225212000865,4.447634393539777,15.532422,39.98523485856348,1.0,2.9114856734353656,0.0,1.2644421621133521
48,373.302,8.447171,6.116439471681953,5.969554050140935,17.432201,36.51241602062088,1.0,2.216164566578136,0.0,0.9624680422543961
49,373.473,12.5694166,9.415646271226635,3.767455052251764,16.504500999999998,35.47302411474826,1.0,2.276093786352872,0.0,0.9884949717073311
50,373.644,2.966049,4.001567299260254,4.4668562045501865,13.248914378649875,17.874425718625798,0.9471728347910058,1.807157629617001,0.023570766142212457,0.8286117988647753
51,373.816,67.91056999999999,64.68229765005337,8.209038993368893,93.65159000000001,530.9795035899812,1.0,5.749178813481499,0.0,2.496836634170099
52,373.987,15.292472999999998,10.20814205301244,14.292034375907503,22.392688,145.89511713580077,1.0,6.549408234437923,0.0,2.8443718559481086
53,374.158,165.5242,107.95867220080098,2.588893993139961,231.90471000000002,279.49355796801973,1.0,1.3703731398368217,0.0,0.5951454927795649
54,374.329,13.026632999999999,9.521852772060752,3.062894427002337,23.498669999999997,29.16442979028163,1.0,1.4403629495006702,0.0,0.6255416809060331
55,374.5,241.04775,174.40021471738643,4.041448989207329,391.39926,704.8295714871226,1.0,1.9407023242878787,0.0,0.8428363104550408
56,374.671,268.1737,140.67376236672567,8.602301623668794,311.63214,1210.1181344148822,1.0,3.918432567110488,0.0,1.7017536416060781
57,374.842,332.4959,140.52938535583937,4.635347290410001,532.2201,651.402505632173,1.0,1.294854624412821,0.0,0.5623482182493957
58,375.014,269.86483,245.3961146125588,3.788500612397044,477.2179,929.6833304895342,1.0,2.149906459530738,0.0,0.9336925119823561
59,375.185,348.379163,168.18157930509847,2.0215110053689798,448.247,339.9809134655924,1.0,0.8990690858876725,0.0,0.3904607428508169
60,375.356,212.56260000000003,92.32890084063601,2.50908510927407,256.92584400000004,231.661070254882,1.0,1.0008343739626544,0.0,0.43465684591107634
61,375.527,7.1072630000000006,10.09171166922049,2.7393435972836437,12.229424199999999,27.644665746711784,1.0,2.6694642041048113,0.0,1.1593335734809753
62,375.698,122.1183,72.43440735098203,4.893044062328096,165.00103000000001,354.4247467969772,1.0,2.2284066735266643,0.0,0.9677847217490114
63,375.869,14.632283999999999,7.85220211715185,5.443545949003123,29.25925,42.74382302557569,1.0,1.556311349484442,0.0,0.6758974312044963
64,376.041,231.81161000000003,149.513902924206,2.1720004769846173,350.19059000000004,324.74426846720723,1.0,1.1295800792697872,0.0,0.4905703952947063
65,376.212,104.32806999999998,73.91586865598009,8.775160959794462,286.89950000000005,648.6236449392517,1.0,2.3692194805583418,0.0,1.0289389468241763
66,376.383,262.258283,141.98649899159005,2.8959928801774097,423.03180000000003,411.19189016096175,1.0,1.112618662736637,0.0,0.4832041456890966
67,376.554,14.097736000000001,4.951481920716665,3.7219535936932324,25.549343000000004,18.42918592891846,1.0,0.8022830149091383,0.0,0.34842708629974306
68,376.725,5.525263000000001,6.896278313661725,6.569516412821958,23.354598,45.30521356898883,1.0,2.3067278185307996,0.0,1.0017991628406517
69,376.896,7.5821179999999995,6.259195324055322,11.402943277836503,20.237442,71.3732492451023,1.0,3.6221190584326606,0.0,1.5730663198739063
70,377.068,13.0320182,10.849444069966957,5.014059088098541,24.562637,54.39975363983465,1.0,2.366040619244455,0.0,1.0275583848968197
71,377.239,11.060266000000002,7.247013341076722,5.4337052885472055,25.24932,39.37813471758074,1.0,1.691623743131998,0.0,0.7346628570987506
72,377.41,170.40563000000003,115.73815170349016,6.514122209654461,362.70880000000005,753.9324645160626,1.0,2.1867665741646185,0.0,0.9497006563701718
73,377.581,352.63,187.68619913035698,2.75976472290331,518.464,517.9697513357652,1.0,1.131981010016522,0.0,0.49161310626944504
74,377.752,190.16078,116.6783230995612,4.326154409256903,296.4342,504.7684419418682,1.0,1.8099746227515705,0.0,0.7860619910459269
75,377.923,11.941720100000001,12.088722004931462,5.06818765347946,22.24646,61.2679116117391,1.0,2.9342076989769286,0.0,1.2743102124237178
76,378.095,94.91515000000001,94.87005956984795,34.64918424274849,259.83153,3287.170173156186,1.0,12.690582771635464,0.0,5.511450069857757
77,378.266,140.45664,48.11445469260147,3.4483828403837276,310.00609999999995,165.91705993638723,1.0,0.635445338438588,0.0,0.27597040403502304
78,378.437,242.7029,108.38551236161594,3.141152872852794,430.97119999999995,340.45546353031193,1.0,0.9074622517383454,0.0,0.3941058484654629
79,378.608,142.94189999999998,87.41536938027545,4.308505112666467,379.91140000000007,376.6295659005445,1.0,1.1648110455336163,0.0,0.5058710095352069
80,378.779,12.247332,10.298607844267885,4.178980670060864,36.21737,43.037683109732676,1.0,1.4557417594974917,0.0,0.6322206132258913
81,378.95,187.11182000000002,70.27562092596266,6.8653233451177655,330.61166,482.464860935658,1.0,1.5068663877637107,0.0,0.6544237571712652
82,379.122,51.834399999999995,67.65656625929223,51.9127532735895,240.17019999999997,3512.238631556898,1.0,14.682090313972381,0.0,6.376350806163386
83,379.293,13.989492000000002,11.223753547729743,3.1492997938266094,43.94161,35.346964733825956,1.0,1.1361140100512321,0.0,0.49340804537822563
84,379.464,17.836085000000004,10.00583910664293,4.1780403035540745,39.86971,41.80479905843166,1.0,1.1891738494624673,0.0,0.5164516408451978
85,379.635,247.3707,160.91111623117283,6.170173263552133,647.3884,992.8494671779123,1.0,1.6658721224840332,0.0,0.7234790703512736
86,379.806,443.4389,109.74622245840628,2.1606563094069426,596.0205000000001,237.12386798833344,1.0,0.46854193145559053,0.0,0.20348517537145458
87,379.977,11.329832,8.89248458619502,11.13125253548459,27.383794000000005,98.98449159684094,1.0,3.6989403070612172,0.0,1.6064293642462064
88,380.149,294.62710000000004,92.21076154598227,2.4185489004493532,431.91820000000007,223.01623594663292,1.0,0.6037872494516571,0.0,0.26222147068039686
89,380.32,203.6045,110.78244521235302,3.2972357460081647,303.1711,365.27583838436146,1.0,1.3220121194092356,0.0,0.5741425684686537
90,380.491,283.82109,125.70961536594129,2.969550242870014,495.08599999999996,373.301018841027,1.0,0.8744779117756273,0.0,0.3797809316304335
91,380.662,322.6809,96.66357260566154,2.629026523824187,474.8951,254.13109626788926,1.0,0.6132730029156158,0.0,0.2663410810664888
92,380.833,244.14558000000002,124.49260234919021,6.45944393725837,380.0886,804.1529854779938,1.0,2.176279139348882,0.0,0.9451460213003773
93,381.005,192.02715000000003,156.83137430897716,5.005253948681816,426.2224,784.9808555372039,1.0,2.014681768941899,0.0,0.8749651750425488
94,381.176,228.591655,126.82585801878584,2.8056746387184934,415.1318,355.8320933770199,1.0,1.0210447884925997,0.0,0.4434341174184089
95,381.347,126.16708799999999,68.03101298967182,5.080505208659203,262.2791,345.6319158443896,1.0,1.4238515998146235,0.0,0.618370892848608
96,381.518,251.13330000000002,98.49617578063628,6.568457373358981,414.7731,646.9679320539826,1.0,1.6083652131994095,0.0,0.6985041369776506
97,381.689,196.115,99.07168686735884,4.724213903765067,325.2172,468.0358405682356,1.0,1.5252365366538234,0.0,0.6624018114659823
98,381.86,248.73458,110.98168452257157,4.0211980544752866,566.7678,446.27933388455483,1.0,0.9050401502322017,0.0,0.3930539431467352
99,382.032,357.3751,247.76239288295955,2.987604716715481,822.5763999999999,740.216093601844,1.0,1.1359656168107142,0.0,0.4933435990127169
100,382.203,327.07045,142.95141345618973,4.564846179748874,939.8502000000001,652.5512136051894,1.0,0.8204259976663171,0.0,0.3563064835964516
101,382.374,363.37249999999995,86.43823847956412,3.675703969627775,720.5372,317.72137630696614,1.0,0.501022298388679,0.0,0.21759121950068774
102,382.545,375.7718000000001,138.77463680211886,2.3179425242071083,753.6607,321.67163192502807,1.0,0.5644070788992633,0.0,0.24511887991308332
103,382.716,238.57657,100.47008862942293,3.5914691660997864,381.2917,360.83522542788523,1.0,1.0358195127205598,0.0,0.44985069862225424
104,382.887,375.47220000000004,95.5469536403961,2.6102859336019955,652.9055999999999,249.4048690860479,1.0,0.4589921394103529,0.0,0.19933775338288431
105,383.059,222.37651999999997,102.27661106024975,4.85290008564189,630.4551,496.33817457344827,1.0,0.9117702022686291,0.0,0.39597676760907735
106,383.23,437.75910000000005,95.57738698609624,3.744429725601429,866.4197,357.88280892604996,1.0,0.4672124816904164,0.0,0.2029078026744719
107,383.401,298.33540000000005,65.1124580310097,4.434372352742585,856.3855,288.7328837118213,1.0,0.4016295192943363,0.0,0.17442548399898586
108,383.572,436.87610000000006,142.84098173875032,2.9603745092784304,804.1585000000002,422.8628012197022,1.0,0.6192058314050352,0.0,0.268917675741522
109,383.743,424.4647999999999,111.28123013770112,3.7006127281439642,835.3747999999999,411.8087366510945,1.0,0.5583409362501562,0.0,0.24248438763413813
110,383.915,432.294,97.92218657791501,2.5820370419641065,702.6170000000001,252.838712974297,1.0,0.42521084888136906,0.0,0.18466672531457606
111,384.086,384.5022,65.38554534574135,2.960724418376619,691.4612,193.58858071400812,1.0,0.32756860816813027,0.0,0.14226123897214743
112,384.257,479.7374,158.38349674962978,4.03066624821197,1029.8817000000001,638.391014622523,1.0,0.7023056610540586,0.0,0.3050074732051931
113,384.428,254.89029,95.59417000244785,3.253144585551616,488.0929,310.9816565537639,1.0,0.7393225830895739,0.0,0.3210837181822603
114,384.599,288.77363,138.77180418893494,3.728238434237856,545.6931999999999,517.3743739657172,1.0,1.06293770770494,0.0,0.46162798106314695
115,384.771,407.4308,209.66498776276407,3.5004297723534425,1004.3410000000001,733.9175653848996,1.0,0.8937587889854968,0.0,0.38815451020893404
116,384.942,318.07779999999997,105.72798126305071,3.0906051558627285,601.0404000000001,326.76344401054246,1.0,0.6372260134807265,0.0,0.2767437413798866
117,385.113,234.07030999999998,104.2803391995102,2.9056594774096127,449.5804,303.0031559025459,1.0,0.8079058407107119,0.0,0.35086904851806966
118,385.284,275.45459999999997,65.66115084005153,2.790857475599641,526.2519,183.25091367843348,1.0,0.4219935182978932,0.0,0.18326945639571393
119,385.455,325.2719,42.8582949904683,3.7771793195465526,719.7093,161.88346550902247,1.0,0.26068010222463056,0.0,0.11321192993813263
120,385.626,373.24809999999997,74.54437704139728,4.449436798091524,836.6958999999999,331.68049429880205,1.0,0.44388483440653737,0.0,0.19277673418329785
121,385.798,282.77750000000003,69.38540031051201,3.412811474374991,646.0633,236.79929033381745,1.0,0.44107660687255834,0.0,0.191557136461362
122,385.969,241.6924,54.31935264010424,3.7738744559610495,581.2235000000001,204.9944173928298,1.0,0.4182154833328807,0.0,0.18162867665797144
123,386.14,569.1213,131.4687244785238,3.1453465287437656,1007.557,413.51469617689537,1.0,0.4709579398525482,0.0,0.20453443448648523
124,386.311,530.927,157.86861126012352,3.885689514726522,1208.7532999999999,613.4284074778993,1.0,0.5881825999241083,0.0,0.2554444574985482
125,386.482,314.08349999999996,93.7309568032355,4.372695867526171,719.1096,409.85696747278195,1.0,0.643352404153318,0.0,0.27940439904297665
126,386.654,277.2069,59.9045789910087,3.07551851519949,617.7547999999999,184.23764183207763,1.0,0.3683002484874698,0.0,0.15995076560170457
127,386.825,243.8712,79.31691531167863,2.9279633653198145,549.3349999999999,232.2370222827693,1.0,0.5333928895818659,0.0,0.23164958863183482
128,386.996,296.65160000000003,55.392349076745255,3.052724269405853,613.1038000000001,169.09756836598115,1.0,0.3330692876426475,0.0,0.14465015371464873
129,387.167,272.0679,71.26708142536778,3.510076258552309,578.8882,250.1528905274977,1.0,0.505320616234115,0.0,0.21945795522242686
130,387.338,411.97249999999997,84.68859181170744,3.6945131117312946,770.4155999999999,312.8831128624127,1.0,0.4551855881185194,0.0,0.19768458916175932
131,387.51,439.7610999999999,112.02274181740955,3.4805614355968,994.1102999999999,389.9020350794927,1.0,0.46767557017501277,0.0,0.20310891944796503
132,387.681,458.5424999999999,88.27589406995547,3.683422894889302,1126.6131999999998,325.15744928409674,1.0,0.34692979802680635,0.0,0.15066969689085163
133,387.852,422.4853,83.25280593475512,3.243941285837712,1062.5627000000002,270.067214333587,1.0,0.3216068247415617,0.0,0.13967206932768644
134,388.023,406.9906,51.88732019906212,3.860052092428705,988.0502,200.28775890490795,1.0,0.23946845704238431,0.0,0.1039998294833934
135,388.194,446.93280000000004,50.80549162403608,3.6972585210236786,1008.0653,187.84103682176453,1.0,0.21827533797335108,0.0,0.09479577481739368
136,388.366,483.60209999999995,96.94741209485686,3.2828992213705592,1168.8719999999998,318.2685836800963,1.0,0.3381244604986359,0.0,0.1468455873910716
137,388.537,592.7227,118.03453941796019,3.32377027952509,1501.591,392.31969407484877,1.0,0.3285091096665413,0.0,0.14266969358312906
138,388.708,532.2102000000001,69.23629430262714,3.8983451827778715,1202.896,269.90697436803754,1.0,0.259366057412435,0.0,0.11264124752722252
139,388.879,471.22970000000004,44.66493433343432,4.705028732456173,1149.383,210.14979937207664,1.0,0.20594502518437752,0.0,0.08944078801300137
140,389.05,433.8447,54.61420094636561,3.632498018669523,899.7229,198.38597672889225,1.0,0.25390087409585793,0.0,0.11026774857024338
